4:06:53 PM Monday, November 14, 2011

2- 1000W 60V power supply
0C-200C
water start temp 45C
water end temp 50C
Vhigh = 66V
vlow = 41V
Vswitch @ 120C
Imax TO STAGE = 11A


1,0.2
2,0.2
3,0.3
4,8.0
5,10.1
6,14.9
7,19.9
8,24.9
9,30.5
10,35.1
11,39.6
12,43.8
13,48.1
14,51.8
15,55.3
16,58.5
17,61.5
18,64.7
19,67.4
20,70.1
21,72.5
22,74.8
23,77.7
24,79.9
25,82.0
26,84.0
27,86.1
28,87.8
29,89.6
30,91.3
31,92.9
32,94.5
33,96.0
34,97.5
35,98.9
36,100.1
37,101.5
38,102.7
39,103.9
40,105.1
41,106.2
42,107.2
43,108.3
44,109.3
45,110.2
46,111.2
47,112.1
48,112.9
49,113.8
50,114.5
51,115.3
52,116.1
53,116.8
54,117.5
55,118.1
56,118.8
57,119.4
58,120.1
59,120.6
60,121.2
61,121.7
62,122.3
63,122.8
64,123.2
65,123.7
66,124.3
67,125.5
68,127.2
69,129.5
70,131.9
71,134.4
72,136.9
73,139.3
74,141.8
75,144.1
76,146.2
77,148.3
78,150.1
79,152.2
80,153.9
81,155.6
82,157.1
83,158.8
84,160.3
85,161.7
86,163.1
87,164.2
88,165.6
89,166.8
90,167.9
91,169.0
92,170.1
93,171.1
94,172.1
95,173.1
96,174.2
97,174.8
98,175.7
99,176.5
100,177.3
101,178.1
102,178.9
103,179.6
104,180.3
105,181.0
106,181.7
107,182.3
108,182.9
109,183.5
110,184.0
111,184.3
112,184.8
113,185.2
114,185.5
115,185.9
116,186.3
117,186.8
118,187.2
119,187.6
120,187.9
121,188.4
122,188.8
123,189.2
124,189.6
125,189.9
126,190.3
127,190.7
128,191.0
129,191.3
130,191.6
131,191.9
132,192.2
133,192.5
134,192.7
135,193.0
136,193.3
137,193.6
138,193.8
139,194.0
140,194.3
141,194.5
142,194.7
143,194.9
144,195.1
145,195.3
146,195.6
147,195.8
148,195.9
149,196.1
150,196.3
151,196.5
152,196.6
153,196.7
154,196.9
155,197.1
156,197.2
157,197.4
158,197.5
159,197.6
160,197.7
161,197.9
162,197.9
163,198.1
164,198.2
165,198.3
166,198.4
167,198.5
168,198.6
169,198.7
170,198.8
171,198.8
172,198.9
173,199.0
174,199.1
175,199.2
176,199.2
177,199.3
178,199.4
179,199.5
180,199.5
181,199.5
182,199.5
183,199.6
184,199.7
185,199.7
186,199.7
187,199.8
188,199.8
189,199.9
190,199.8
191,199.9
192,199.9
193,199.9
194,199.8
195,199.9
196,199.9
197,200.0
198,200.0

2- 1000W 60V power supply
200C - 0C
water start temp 60C
water end temp 42C
Vhigh = 66V
vlow = 41V
Vswitch @ 120C
Imax TO STAGE = 11A
Giant Radiator



1,199.9
2,199.9
3,199.9
4,199.3
5,196.8
6,193.3
7,188.7
8,184.8
9,180.1
10,174.8
11,170.0
12,165.4
13,161.0
14,156.3
15,152.2
16,148.3
17,144.6
18,141.2
19,137.4
20,134.1
21,131.0
22,128.0
23,124.9
24,122.0
25,119.3
26,116.6
27,114.1
28,111.4
29,109.0
30,106.6
31,104.4
32,102.2
33,99.7
34,97.6
35,95.6
36,93.6
37,91.6
38,89.5
39,87.6
40,85.8
41,84.1
42,82.1
43,80.4
44,78.7
45,77.1
46,75.5
47,73.7
48,72.2
49,70.8
50,69.3
51,67.8
52,66.4
53,65.0
54,63.7
55,62.4
56,61.0
57,59.8
58,58.6
59,57.4
60,56.2
61,54.9
62,53.8
63,52.7
64,51.6
65,50.5
66,49.4
67,48.4
68,47.3
69,46.4
70,45.3
71,44.4
72,43.5
73,42.6
74,41.7
75,40.7
76,39.9
77,39.0
78,38.2
79,37.3
80,36.5
81,35.8
82,35.1
83,34.3
84,33.5
85,32.8
86,32.0
87,31.4
88,30.8
89,30.0
90,29.4
91,28.7
92,28.1
93,27.5
94,26.8
95,26.2
96,25.7
97,25.1
98,24.5
99,23.9
100,23.4
101,22.9
102,22.3
103,21.8
104,21.3
105,20.8
106,20.3
107,19.8
108,19.3
109,18.9
110,18.4
111,18.0
112,17.5
113,17.1
114,16.7
115,16.3
116,15.9
117,15.6
118,15.2
119,14.9
120,14.6
121,14.1
122,13.8
123,13.4
124,13.1
125,12.7
126,12.3
127,12.0
128,11.7
129,11.4
130,11.0
131,10.7
132,10.4
133,10.2
134,9.9
135,9.5
136,9.3
137,9.0
138,8.7
139,8.5
140,8.2
141,7.9
142,7.7
143,7.4
144,7.2
145,6.9
146,6.7
147,6.5
148,6.2
149,6.0
150,5.8
151,5.6
152,5.4
153,5.1
154,4.9
155,4.7
156,4.5
157,4.4
158,4.2
159,4.0
160,3.9
161,3.7
162,3.6
163,3.4
164,3.3
165,3.2
166,3.1
167,3.0
168,2.8
169,2.7
170,2.6
171,2.5
172,2.4
173,2.3
174,2.2
175,2.2
176,2.1
177,2.0
178,1.9
179,1.8
180,1.8
181,1.7
182,1.6
183,1.6
184,1.5
185,1.5
186,1.4
187,1.3
188,1.3
189,1.3
190,1.2
191,1.2
192,1.1
193,1.1
194,1.1
195,1.1
196,1.0
197,1.0
198,1.0
199,1.0
200,0.9
201,0.9
202,0.9
203,0.9
204,0.9
205,0.8
206,0.8
207,0.8
208,0.8
209,0.8
210,0.7
211,0.8
212,0.8
213,0.8
214,0.7
215,0.7
216,0.7
217,0.8
218,0.8
219,0.7
220,0.8
221,0.8
222,0.8
223,0.8
224,0.8
225,0.8
226,0.8
227,0.8
228,0.8
229,0.8
230,0.8
231,0.8
232,0.7
233,0.7
234,0.7
235,0.7
236,0.6
237,0.6
238,0.5
239,0.5
240,0.5
241,0.5
242,0.4
243,0.3
244,0.3
245,0.3
246,0.2
247,0.2
248,0.1
249,0.1
250,0.1
251,0.1
252,0.0
253,0.0
