4:07:43 PM Wednesday, October 26, 2011


1000W 36V power supply
Heater
25C-200C
water start temp 30C
water end temp 90C!!
Vhigh = 42V
vlow = 30V
Vswitch @ 0C
Imax TO STAGE = 25A






1,24.9
2,24.9
3,24.8
4,24.8
5,24.8
6,24.8
7,25.0
8,25.6
9,25.7
10,26.1
11,26.6
12,27.0
13,27.5
14,28.0
15,28.6
16,29.1
17,29.7
18,30.3
19,30.9
20,31.4
21,31.9
22,32.6
23,33.2
24,33.8
25,34.3
26,34.9
27,35.5
28,36.1
29,36.7
30,37.2
31,37.8
32,38.4
33,39.0
34,39.6
35,40.1
36,40.7
37,41.2
38,41.8
39,42.4
40,42.9
41,43.5
42,44.1
43,44.6
44,45.1
45,45.7
46,46.3
47,46.8
48,47.3
49,47.8
50,48.4
51,49.0
52,49.5
53,50.0
54,50.6
55,51.1
56,51.7
57,52.2
58,52.6
59,53.3
60,53.7
61,54.3
62,54.8
63,55.3
64,55.8
65,56.3
66,56.8
67,57.4
68,57.8
69,58.4
70,58.9
71,59.3
72,59.8
73,60.3
74,60.8
75,61.3
76,61.8
77,62.3
78,62.8
79,63.3
80,63.7
81,64.1
82,64.7
83,65.1
84,65.6
85,66.1
86,66.5
87,67.0
88,67.5
89,68.0
90,68.4
91,68.8
92,69.3
93,69.8
94,70.2
95,70.7
96,71.1
97,71.6
98,72.0
99,72.4
100,72.8
101,73.3
102,73.8
103,74.2
104,74.7
105,75.1
106,75.6
107,76.0
108,76.4
109,76.8
110,77.3
111,77.7
112,78.1
113,78.5
114,78.9
115,79.4
116,79.9
117,80.3
118,80.8
119,81.1
120,81.5
121,81.9
122,82.3
123,82.7
124,83.1
125,83.5
126,83.9
127,84.3
128,84.7
129,85.1
130,85.5
131,85.9
132,86.3
133,86.6
134,87.0
135,87.4
136,87.8
137,88.2
138,88.5
139,88.9
140,89.3
141,89.7
142,90.1
143,90.4
144,90.8
145,91.1
146,91.6
147,91.8
148,92.3
149,92.6
150,93.0
151,93.4
152,93.6
153,94.0
154,94.4
155,94.8
156,95.1
157,95.4
158,95.8
159,96.2
160,96.5
161,96.8
162,97.2
163,97.5
164,97.9
165,98.2
166,98.5
167,98.9
168,99.2
169,99.6
170,99.9
171,100.1
172,100.5
173,100.9
174,101.2
175,101.5
176,101.8
177,102.1
178,102.5
179,102.8
180,103.0
181,103.4
182,103.7
183,104.0
184,104.3
185,104.6
186,104.9
187,105.2
188,105.5
189,105.8
190,106.1
191,106.4
192,106.8
193,107.0
194,107.3
195,107.6
196,107.9
197,108.3
198,108.5
199,108.8
200,109.1
201,109.4
202,109.7
203,109.9
204,110.2
205,110.5
206,110.8
207,111.1
208,111.3
209,111.7
210,111.9
211,112.2
212,112.5
213,112.7
214,113.0
215,113.3
216,113.6
217,113.8
218,114.1
219,114.4
220,114.7
221,114.9
222,115.1
223,115.4
224,115.7
225,116.0
226,116.2
227,116.5
228,116.7
229,117.0
230,117.2
231,117.4
232,117.7
233,118.0
234,118.2
235,118.5
236,118.7
237,119.0
238,119.2
239,119.5
240,119.7
241,119.9
242,120.2
243,120.5
244,120.7
245,120.9
246,121.1
247,121.4
248,121.6
249,121.9
250,122.0
251,122.3
252,122.6
253,122.8
254,123.0
255,123.2
256,123.5
257,123.7
258,124.0
259,124.1
260,124.4
261,124.6
262,124.9
263,125.2
264,125.4
265,125.6
266,125.8
267,126.0
268,126.3
269,126.5
270,126.7
271,126.9
272,127.1
273,127.3
274,127.5
275,127.8
276,128.0
277,128.2
278,128.4
279,128.6
280,128.8
281,129.0
282,129.2
283,129.5
284,129.6
285,129.8
286,130.0
287,130.3
288,130.5
289,130.6
290,130.8
291,131.0
292,131.3
293,131.4
294,131.6
295,131.8
296,132.0
297,132.2
298,132.4
299,132.5
300,132.8
301,133.0
302,133.1
303,133.3
304,133.5
305,133.7
306,133.9
307,134.1
308,134.2
309,134.4
310,134.6
311,134.8
312,134.9
313,135.1
314,135.3
315,135.5
316,135.6
317,135.8
318,136.0
319,136.2
320,136.4
321,136.5
322,136.7
323,136.9
324,137.1
325,137.3
326,137.4
327,137.6
328,137.8
329,138.0
330,138.1
331,138.3
332,138.5
333,138.7
334,138.8
335,139.0
336,139.1
337,139.3
338,139.5
339,139.7
340,139.8
341,140.0
342,140.2
343,140.3
344,140.5
345,140.6
346,140.8
347,141.0
348,141.1
349,141.3
350,141.4
351,141.6
352,141.8
353,141.9
354,142.1
355,142.3
356,142.4
357,142.6
358,142.7
359,142.9
360,143.0
361,143.2
362,143.3
363,143.5
364,143.6
365,143.8
366,144.0
367,144.1
368,144.2
369,144.4
370,144.6
371,144.7
372,144.8
373,145.0
374,145.1
375,145.3
376,145.4
377,145.5
378,145.7
379,145.9
380,146.0
381,146.1
382,146.3
383,146.4
384,146.6
385,146.7
386,146.8
387,147.0
388,147.1
389,147.3
390,147.4
391,147.5
392,147.7
393,147.8
394,147.9
395,148.1
396,148.2
397,148.3
398,148.5
399,148.6
400,148.7
401,148.9
402,149.0
403,149.1
404,149.3
405,149.4
406,149.5
407,149.6
408,149.8
409,149.9
410,150.0
411,150.1
412,150.3
413,150.4
414,150.5
415,150.6
416,150.7
417,150.9
418,151.0
419,151.1
420,151.2
421,151.4
422,151.5
423,151.6
424,151.7
425,151.8
426,152.0
427,152.1
428,152.1
429,152.3
430,152.5
431,152.6
432,152.7
433,152.8
434,152.9
435,153.1
436,153.2
437,153.3
438,153.4
439,153.5
440,153.7
441,153.8
442,153.9
443,154.0
444,154.1
445,154.3
446,154.4
447,154.4
448,154.6
449,154.7
450,154.8
451,154.9
452,155.0
453,155.2
454,155.3
455,155.4
456,155.4
457,155.6
458,155.7
459,155.8
460,155.9
461,156.0
462,156.1
463,156.3
464,156.4
465,156.4
466,156.6
467,156.7
468,156.8
469,156.9
470,157.0
471,157.1
472,157.2
473,157.3
474,157.4
475,157.5
476,157.6
477,157.7
478,157.8
479,157.9
480,158.0
481,158.1
482,158.2
483,158.3
484,158.4
485,158.5
486,158.6
487,158.7
488,158.8
489,158.9
490,159.0
491,159.1
492,159.2
493,159.3
494,159.4
495,159.5
496,159.6
497,159.7
498,159.8
499,159.9
500,160.0
501,160.1
502,160.2
503,160.3
504,160.3
505,160.4
506,160.6
507,160.6
508,160.7
509,160.8
510,160.9
511,161.0
512,161.0
513,161.1
514,161.2
515,161.4
516,161.4
517,161.5
518,161.6
519,161.7
520,161.8
521,161.8
522,161.9
523,162.0
524,162.1
525,162.2
526,162.2
527,162.3
528,162.5
529,162.6
530,162.6
531,162.7
532,162.8
533,162.9
534,163.0
535,163.0
536,163.2
537,163.3
538,163.4
539,163.4
540,163.5
541,163.6
542,163.7
543,163.8
544,163.8
545,163.9
546,164.1
547,164.2
548,164.3
549,164.3
550,164.4
551,164.5
552,164.6
553,164.7
554,164.7
555,164.8
556,164.9
557,165.0
558,165.1
559,165.1
560,165.2
561,165.3
562,165.4
563,165.4
564,165.6
565,165.7
566,165.7
567,165.8
568,165.8
569,166.0
570,166.0
571,166.1
572,166.2
573,166.3
574,166.4
575,166.5
576,166.5
577,166.6
578,166.7
579,166.8
580,166.8
581,166.9
582,167.0
583,167.1
584,167.1
585,167.2
586,167.3
587,167.4
588,167.4
589,167.5
590,167.6
591,167.7
592,167.8
593,167.8
594,167.9
595,168.0
596,168.1
597,168.1
598,168.2
599,168.3
600,168.4
601,168.4
602,168.5
603,168.6
604,168.7
605,168.7
606,168.8
607,168.8
608,168.9
609,169.0
610,169.0
611,169.1
612,169.2
613,169.3
614,169.4
615,169.4
616,169.5
617,169.6
618,169.7
619,169.6
620,169.7
621,169.8
622,169.9
623,170.0
624,170.0
625,170.0
626,170.1
627,170.2
628,170.2
629,170.3
630,170.4
631,170.5
632,170.5
633,170.6
634,170.6
635,170.8
636,170.8
637,170.9
638,170.9
639,171.0
640,171.1
641,171.2
642,171.2
643,171.3
644,171.4
645,171.5
646,171.6
647,171.6
648,171.7
649,171.8
650,171.8
651,171.9
652,171.9
653,172.0
654,172.1
655,172.2
656,172.2
657,172.3
658,172.4
659,172.4
660,172.5
661,172.6
662,172.6
663,172.7
664,172.8
665,172.9
666,172.9
667,172.9
668,173.0
669,173.1
670,173.2
671,173.2
672,173.2
673,173.3
674,173.4
675,173.4
676,173.5
677,173.6
678,173.7
679,173.7
680,173.7
681,173.8
682,173.9
683,174.0
684,174.0
685,174.0
686,174.1
687,174.2
688,174.3
689,174.3
690,174.3
691,174.4
692,174.5
693,174.6
694,174.6
695,174.6
696,174.7
697,174.8
698,174.8
699,174.9
700,174.9
701,175.0
702,175.1
703,175.1
704,175.2
705,175.2
706,175.3
707,175.4
708,175.4
709,175.4
710,175.5
711,175.6
712,175.6
713,175.7
714,175.8
715,175.9
716,176.0
717,175.9
718,176.0
719,176.1
720,176.1
721,176.2
722,176.2
723,176.2
724,176.3
725,176.4
726,176.5
727,176.4
728,176.5
729,176.6
730,176.7
731,176.7
732,176.7
733,176.8
734,176.9
735,176.9
736,177.0
737,177.0
738,177.1
739,177.2
740,177.2
741,177.2
742,177.3
743,177.4
744,177.5
745,177.5
746,177.5
747,177.6
748,177.7
749,177.7
750,177.7
751,177.8
752,177.9
753,177.9
754,177.9
755,178.0
756,178.1
757,178.2
758,178.2
759,178.2
760,178.2
761,178.3
762,178.4
763,178.3
764,178.4
765,178.5
766,178.5
767,178.6
768,178.6
769,178.6
770,178.7
771,178.8
772,178.8
773,178.8
774,178.9
775,178.9
776,179.0
777,179.0
778,179.0
779,179.1
780,179.2
781,179.2
782,179.3
783,179.3
784,179.3
785,179.4
786,179.5
787,179.5
788,179.5
789,179.6
790,179.7
791,179.7
792,179.7
793,179.8
794,179.8
795,179.9
796,179.9
797,179.9
798,180.0
799,180.1
800,180.1
801,180.1
802,180.1
803,180.2
804,180.3
805,180.3
806,180.3
807,180.3
808,180.4
809,180.5
810,180.5
811,180.5
812,180.6
813,180.7
814,180.7
815,180.7
816,180.7
817,180.8
818,180.9
819,180.8
820,180.9
821,181.0
822,181.1
823,181.1
824,181.1
825,181.2
826,181.2
827,181.3
828,181.3
829,181.3
830,181.4
831,181.4
832,181.5
833,181.5
834,181.5
835,181.6
836,181.6
837,181.7
838,181.7
839,181.7
840,181.8
841,181.8
842,181.9
843,181.9
844,181.9
845,181.9
846,182.0
847,182.0
848,182.1
849,182.1
850,182.2
851,182.2
852,182.2
853,182.2
854,182.3
855,182.3
856,182.4
857,182.4
858,182.4
859,182.4
860,182.5
861,182.5
862,182.5
863,182.5
864,182.6
865,182.7
866,182.6
867,182.7
868,182.7
869,182.8
870,182.9
871,182.9
872,182.9
873,182.9
874,183.0
875,183.0
876,183.0
877,183.1
878,183.1
879,183.2
880,183.2
881,183.2
882,183.2
883,183.3
884,183.4
885,183.3
886,183.4
887,183.4
888,183.5
889,183.6
890,183.5
891,183.5
892,183.6
893,183.7
894,183.6
895,183.6
896,183.7
897,183.8
898,183.8
899,183.7
900,183.8
901,183.9
902,183.9
903,183.9
904,183.9
905,184.0
906,184.0
907,184.1
908,184.0
909,184.1
910,184.2
911,184.2
912,184.2
913,184.2
914,184.3
915,184.3
916,184.4
917,184.3
918,184.4
919,184.5
920,184.5
921,184.5
922,184.5
923,184.6
924,184.6
925,184.7
926,184.6
927,184.7
928,184.7
929,184.8
930,184.8
931,184.8
932,184.9
933,184.9
934,184.9
935,185.0
936,184.9
937,185.0
938,185.1
939,185.1
940,185.1
941,185.1
942,185.1
943,185.2
944,185.2
945,185.2
946,185.2
947,185.3
948,185.3
949,185.4
950,185.4
951,185.4
952,185.5
953,185.5
954,185.5
955,185.5
956,185.6
957,185.6
958,185.6
959,185.6
960,185.6
961,185.7
962,185.7
963,185.7
964,185.7
965,185.8
966,185.8
967,185.8
968,185.8
969,185.8
970,185.9
971,185.9
972,186.0
973,185.9
974,186.0
975,186.0
976,186.1
977,186.1
978,186.1
979,186.1
980,186.2
981,186.2
982,186.1
983,186.2
984,186.3
985,186.3
986,186.3
987,186.3
988,186.3
989,186.4
990,186.4
991,186.5
992,186.4
993,186.5
994,186.5
995,186.5
996,186.6
997,186.6
998,186.6
999,186.6
1000,186.7
1001,186.7
1002,186.7
1003,186.8
1004,186.8
1005,186.8
1006,186.8
1007,186.9
1008,186.9
1009,186.9
1010,186.9
1011,186.9
1012,187.0
1013,187.0
1014,187.0
1015,187.0
1016,187.1
1017,187.1
1018,187.1
1019,187.1
1020,187.2
1021,187.2
1022,187.2
1023,187.2
1024,187.2
1025,187.2
1026,187.3
1027,187.3
1028,187.3
1029,187.3
1030,187.4
1031,187.4
1032,187.4
1033,187.4
1034,187.4
1035,187.5
1036,187.5
1037,187.5
1038,187.6
1039,187.6
1040,187.6
1041,187.7
1042,187.6
1043,187.7
1044,187.7
1045,187.7
1046,187.8
1047,187.8
1048,187.8
1049,187.8
1050,187.9
1051,187.9
1052,187.8
1053,187.9
1054,187.9
1055,187.9
1056,187.9
1057,187.9
1058,188.0
1059,188.0
1060,188.0
1061,188.0
1062,188.0
1063,188.1
1064,188.1
1065,188.1
1066,188.1
1067,188.1
1068,188.2
1069,188.2
1070,188.1
1071,188.2
1072,188.2
1073,188.3
1074,188.2
1075,188.2
1076,188.3
1077,188.3
1078,188.3
1079,188.3
1080,188.3
1081,188.4
1082,188.4
1083,188.4
1084,188.4
1085,188.4
1086,188.5
1087,188.5
1088,188.5
1089,188.5
1090,188.5
1091,188.6
1092,188.6
1093,188.6
1094,188.6
1095,188.7
1096,188.7
1097,188.7
1098,188.7
1099,188.7
1100,188.8
1101,188.8
1102,188.8
1103,188.8
1104,188.8
1105,188.9
1106,188.9
1107,188.8
1108,188.9
1109,188.9
1110,188.9
1111,188.9
1112,188.9
1113,189.0
1114,189.0
1115,189.0
1116,189.0
1117,189.0
1118,189.0
1119,189.1
1120,189.1
1121,189.1
1122,189.1
1123,189.2
1124,189.2
1125,189.2
1126,189.2
1127,189.2
1128,189.3
1129,189.3
1130,189.3
1131,189.3
1132,189.3
1133,189.3
1134,189.3
1135,189.3
1136,189.3
1137,189.4
1138,189.4
1139,189.4
1140,189.4
1141,189.4
1142,189.4
1143,189.5
1144,189.4
1145,189.4
1146,189.5
1147,189.5
1148,189.6
1149,189.5
1150,189.5
1151,189.5
1152,189.6
1153,189.6
1154,189.5
1155,189.6
1156,189.6
1157,189.7
1158,189.7
1159,189.6
1160,189.6
1161,189.7
1162,189.7
1163,189.7
1164,189.7
1165,189.7
1166,189.8
1167,189.8
1168,189.7
1169,189.8
1170,189.8
1171,189.8
1172,189.8
1173,189.8
1174,189.8
1175,189.9
1176,189.9
1177,189.9
1178,189.9
1179,189.9
1180,190.0
1181,190.0
1182,189.9
1183,189.9
1184,190.0
1185,190.0
1186,190.0
1187,190.0
1188,190.0
1189,190.1
1190,190.1
1191,190.1
1192,190.1
1193,190.1
1194,190.2
1195,190.2
1196,190.2
1197,190.2
1198,190.2
1199,190.3
1200,190.3
1201,190.3
1202,190.3
1203,190.3
1204,190.4
1205,190.4
1206,190.4
1207,190.4
1208,190.4
1209,190.5
1210,190.4
1211,190.4
1212,190.4
1213,190.4
1214,190.5
1215,190.5
1216,190.5
1217,190.5
1218,190.5
1219,190.6
1220,190.5
1221,190.5
1222,190.6
1223,190.6
1224,190.6
1225,190.6
1226,190.6
1227,190.6
1228,190.7
1229,190.7
1230,190.7
1231,190.7
1232,190.7
1233,190.7
1234,190.7
1235,190.8
1236,190.8
1237,190.8
1238,190.8
1239,190.8
1240,190.8
1241,190.9
1242,190.9
1243,190.9
1244,190.9
1245,190.9
1246,190.9
1247,191.0
1248,191.0
1249,191.0
1250,191.0
1251,191.0
1252,191.0
1253,191.1
1254,191.1
1255,191.1
1256,191.1
1257,191.1
1258,191.1
1259,191.1
1260,191.2
1261,191.1
1262,191.2
1263,191.2
1264,191.2
1265,191.2
1266,191.2
1267,191.2
1268,191.2
1269,191.2
1270,191.3
1271,191.2
1272,191.3
1273,191.3
1274,191.3
1275,191.3
1276,191.3
1277,191.3
1278,191.3
1279,191.4
1280,191.4
1281,191.4
1282,191.4
1283,191.4
1284,191.4
1285,191.4
1286,191.4
1287,191.4
1288,191.5
1289,191.5
1290,191.5
1291,191.5
1292,191.5
1293,191.5
1294,191.5
1295,191.5
1296,191.6
1297,191.6
1298,191.6
1299,191.6
1300,191.6
1301,191.6
1302,191.7
1303,191.6
1304,191.7
1305,191.7
1306,191.7
1307,191.7
1308,191.7
1309,191.7
1310,191.7
1311,191.7
1312,191.7
1313,191.7
1314,191.8
1315,191.8
1316,191.8
1317,191.8
1318,191.8
1319,191.8
1320,191.8
1321,191.9
1322,191.8
1323,191.9
1324,191.9
1325,191.9
1326,191.9
1327,191.9
1328,191.9
1329,191.9
1330,191.9
1331,192.0
1332,191.9
1333,192.0
1334,192.0
1335,192.0
1336,192.0
1337,192.0
1338,192.0
1339,192.0
1340,192.0
1341,192.0
1342,192.1
1343,192.1
1344,192.1
1345,192.1
1346,192.1
1347,192.1
1348,192.1
1349,192.1
1350,192.1
1351,192.2
1352,192.2
1353,192.2
1354,192.2
1355,192.2
1356,192.2
1357,192.2
1358,192.2
1359,192.2
1360,192.2
1361,192.2
1362,192.2
1363,192.2
1364,192.2
1365,192.3
1366,192.3
1367,192.3
1368,192.3
1369,192.3
1370,192.3
1371,192.3
1372,192.3
1373,192.3
1374,192.3
1375,192.3
1376,192.4
1377,192.4
1378,192.3
1379,192.4
1380,192.4
1381,192.4
1382,192.4
1383,192.3
1384,192.4
1385,192.4
1386,192.4
1387,192.4
1388,192.4
1389,192.4
1390,192.5
1391,192.4
1392,192.4
1393,192.5
1394,192.5
1395,192.5
1396,192.4
1397,192.4
1398,192.5
1399,192.5
1400,192.5
1401,192.4
1402,192.5
1403,192.5
1404,192.5
1405,192.5
1406,192.4
1407,192.5
1408,192.5
1409,192.5
1410,192.5
1411,192.5
1412,192.5
1413,192.5
1414,192.5
1415,192.5
1416,192.5
1417,192.5
1418,192.6
1419,192.5
1420,192.5
1421,192.5
1422,192.6
1423,192.6
1424,192.5
1425,192.6
1426,192.6
1427,192.7
1428,192.7
1429,192.6
1430,192.6
1431,192.7
1432,192.7
1433,192.7
1434,192.6
1435,192.7
1436,192.7
1437,192.7
1438,192.7
1439,192.7
1440,192.7
1441,192.8
1442,192.8
1443,192.7
1444,192.7
1445,192.8
1446,192.8
1447,192.8
1448,192.8
1449,192.8
1450,192.9
1451,192.9
1452,192.8
1453,192.8
1454,192.9
1455,192.9
1456,192.9
1457,192.8
1458,192.9
1459,192.9
1460,193.0
1461,192.9
1462,192.9
1463,193.0
1464,193.0
1465,193.0
1466,192.9
1467,193.0
1468,193.0
1469,193.0
1470,193.0
1471,193.0
1472,193.0
1473,193.1
1474,193.1
1475,193.0
1476,193.1
1477,193.1
1478,193.1
1479,193.1
1480,193.1
1481,193.1
1482,193.1
1483,193.1
1484,193.2
1485,193.1
1486,193.1
1487,193.1
1488,193.2
1489,193.2
1490,193.2
1491,193.2
1492,193.2
1493,193.2
1494,193.2
1495,193.2
1496,193.3
1497,193.3
1498,193.3
1499,193.3
1500,193.3
1501,193.3
1502,193.3
1503,193.3
1504,193.3
1505,193.3
1506,193.4
1507,193.4
1508,193.3
1509,193.3
1510,193.4
1511,193.4
1512,193.4
1513,193.4
1514,193.4
1515,193.4
1516,193.4
1517,193.4
1518,193.4
1519,193.4
1520,193.5
1521,193.5
1522,193.4
1523,193.4
1524,193.5
1525,193.5
1526,193.5
1527,193.4
1528,193.4
1529,193.5
1530,193.5
1531,193.4
1532,193.4
1533,193.4
1534,193.5
1535,193.5
1536,193.5
1537,193.4
1538,193.5
1539,193.5
1540,193.6
1541,193.5
1542,193.5
1543,193.5
1544,193.6
1545,193.6
1546,193.5
1547,193.5
1548,193.6
1549,193.6
1550,193.6
1551,193.6
1552,193.6
1553,193.6
1554,193.6
1555,193.6
1556,193.6
1557,193.6
1558,193.6
1559,193.6
1560,193.6
1561,193.6
1562,193.7
1563,193.7
1564,193.6
1565,193.6
1566,193.7
1567,193.7
1568,193.7
1569,193.7
1570,193.7
1571,193.7
1572,193.7
1573,193.7
1574,193.7
1575,193.7
1576,193.8
1577,193.8
1578,193.8
1579,193.7
1580,193.8
1581,193.8
1582,193.8
1583,193.8
1584,193.8
1585,193.8
1586,193.9
1587,193.8
1588,193.8
1589,193.8
1590,193.9
1591,193.9
1592,193.9
1593,193.9
1594,193.9
1595,193.9
1596,194.0
1597,193.9
1598,193.9
1599,193.9
1600,193.9
1601,194.0
1602,193.9
1603,193.9
1604,193.9
1605,194.0
1606,193.9
1607,193.9
1608,193.9
1609,194.0
1610,194.0
1611,193.9
1612,193.9
1613,194.0
1614,194.0
1615,194.0
1616,194.0
1617,194.0
1618,194.0
1619,194.0
1620,194.0
1621,194.0
1622,194.0
1623,194.0
1624,194.1
1625,194.0
1626,194.0
1627,194.1
1628,194.1
1629,194.1
1630,194.1
1631,194.1
1632,194.1
1633,194.1
1634,194.1
1635,194.1
1636,194.1
1637,194.1
1638,194.1
1639,194.1
1640,194.2
1641,194.2
1642,194.2
1643,194.1
1644,194.2
1645,194.2
1646,194.2
1647,194.2
1648,194.2
1649,194.2
1650,194.2
1651,194.2
1652,194.2
1653,194.2
1654,194.2
1655,194.3
1656,194.3
1657,194.2
1658,194.3
1659,194.3
1660,194.3
1661,194.3
1662,194.3
1663,194.3
1664,194.3
1665,194.3
1666,194.3
1667,194.3
1668,194.3
1669,194.3
1670,194.3
1671,194.3
1672,194.3
1673,194.4
1674,194.4
1675,194.4
1676,194.3
1677,194.4
1678,194.4
1679,194.4
1680,194.4
1681,194.4
1682,194.5
1683,194.5
1684,194.5
1685,194.4
1686,194.4
1687,194.5
1688,194.5
1689,194.5
1690,194.4
1691,194.5
1692,194.5
1693,194.5
1694,194.4
1695,194.4
1696,194.5
1697,194.5
1698,194.6
1699,194.5
1700,194.5
1701,194.5
1702,194.6
1703,194.6
1704,194.5
1705,194.6
1706,194.6
1707,194.6
1708,194.6
1709,194.6
1710,194.6
1711,194.7
1712,194.7
1713,194.6
1714,194.6
1715,194.7
1716,194.7
1717,194.7
1718,194.7
1719,194.7
1720,194.7
1721,194.7
1722,194.7
1723,194.7
1724,194.7
1725,194.8
1726,194.8
1727,194.7
1728,194.8
1729,194.8
1730,194.8
1731,194.8
1732,194.8
1733,194.8
1734,194.9
1735,194.9
1736,194.8
1737,194.8
1738,194.9
1739,194.9
1740,194.9
1741,194.9
1742,194.9
1743,194.9
1744,195.0
1745,194.9
1746,194.9
1747,194.9
1748,195.0
1749,195.0
1750,194.9
1751,194.9
1752,195.0
1753,195.0
1754,195.0
1755,194.9
1756,194.9
1757,195.0
1758,195.0
1759,195.0
1760,194.9
1761,195.0
1762,195.0
1763,195.0
1764,195.0
1765,195.0
1766,195.0
1767,195.1
1768,195.0
1769,195.0
1770,195.0
1771,195.0
1772,195.0
1773,195.0
1774,195.0
1775,195.0
1776,195.0
1777,195.1
1778,195.0
1779,195.0
1780,195.1
1781,195.1
1782,195.1
1783,195.1
1784,195.1
1785,195.1
1786,195.1
1787,195.1
1788,195.1
1789,195.1
1790,195.2
1791,195.2
1792,195.1
1793,195.1
1794,195.1
1795,195.2
1796,195.2
1797,195.2
1798,195.2
1799,195.2
1800,195.3
1801,195.2
1802,195.2
1803,195.2
1804,195.3
1805,195.3
1806,195.3
1807,195.2
1808,195.3
1809,195.3
1810,195.4
1811,195.3
1812,195.3
1813,195.3
1814,195.4
1815,195.4
1816,195.3
1817,195.3
1818,195.4
1819,195.4
1820,195.3
1821,195.3
1822,195.4
1823,195.4
1824,195.4
1825,195.4
1826,195.4
1827,195.4
1828,195.4
1829,195.4
1830,195.4
1831,195.4
1832,195.5
1833,195.5
1834,195.5
1835,195.5
1836,195.5
1837,195.5
1838,195.5
1839,195.5
1840,195.5
1841,195.5
1842,195.6
1843,195.5
1844,195.5
1845,195.5
1846,195.6
1847,195.6
1848,195.5
1849,195.5
1850,195.6
1851,195.6
1852,195.6
1853,195.6
1854,195.6
1855,195.6
1856,195.7
1857,195.6
1858,195.6
1859,195.6
1860,195.7
1861,195.7
1862,195.7
1863,195.7
1864,195.7
1865,195.7
1866,195.8
1867,195.7
1868,195.7
1869,195.7
1870,195.8
1871,195.8
1872,195.7
1873,195.7
1874,195.8
1875,195.8
1876,195.8
1877,195.7
1878,195.8
1879,195.8
1880,195.8
1881,195.8
1882,195.8
1883,195.8
1884,195.9
1885,195.8
1886,195.8
1887,195.8
1888,195.9
1889,195.9
1890,195.9
1891,195.9
1892,195.9
1893,195.9
1894,195.9
1895,195.9
1896,196.0
1897,196.0
1898,196.0
1899,196.0
1900,196.0
1901,196.0
1902,196.0
1903,196.0
1904,196.0
1905,196.0
1906,196.0
1907,196.1
1908,196.0
1909,196.0
1910,196.1
1911,196.1
1912,196.1
1913,196.1
1914,196.1
1915,196.1
1916,196.1
1917,196.2
