10:50:11 AM Wednesday, September 14, 2011
600W 48V power supply
Vhigh 46V
vlow 30V
water start temp = -5C
water end temp = 22C
max current stage = 13A @ 120c (13A supply)
1,-40.2
2,-40.1
3,-39.1
4,-37.1
5,-34.6
6,-31.1
7,-28.6
8,-25.6
9,-22.7
10,-19.8
11,-17.1
12,-14.1
13,-11.5
14,-8.9
15,-6.4
16,-4.1
17,-1.9
18,0.0
19,2.0
20,4.1
21,6.3
22,8.4
23,10.4
24,12.3
25,14.0
26,16.0
27,17.8
28,19.6
29,21.4
30,23.3
31,25.1
32,26.7
33,28.3
34,29.9
35,31.6
36,33.2
37,34.7
38,36.6
39,37.5
40,39.1
41,40.4
42,41.8
43,43.1
44,44.4
45,45.7
46,47.0
47,48.2
48,49.3
49,50.6
50,51.7
51,52.8
52,53.9
53,55.0
54,56.0
55,57.0
56,58.0
57,59.0
58,60.4
59,60.8
60,61.8
61,62.6
62,63.4
63,64.3
64,65.1
65,66.0
66,66.7
67,67.5
68,68.2
69,69.0
70,69.7
71,70.4
72,71.0
73,71.7
74,72.3
75,72.9
76,73.5
77,74.1
78,74.7
79,75.3
80,75.9
81,76.3
82,76.9
83,77.5
84,78.0
85,78.5
86,79.0
87,79.5
88,80.0
89,80.4
90,80.9
91,81.4
92,81.8
93,82.3
94,82.8
95,83.1
96,83.6
97,84.1
98,84.6
99,85.0
100,85.4
101,85.8
102,86.2
103,86.7
104,87.0
105,87.5
106,87.9
107,88.3
108,88.7
109,89.0
110,89.4
111,89.8
112,90.2
113,90.6
114,90.9
115,91.3
116,91.7
117,92.1
118,92.4
119,92.9
120,93.2
121,93.5
122,93.9
123,94.2
124,94.5
125,94.9
126,95.2
127,95.6
128,95.9
129,96.2
130,96.6
131,96.9
132,97.2
133,97.5
134,97.9
135,98.2
136,98.5
137,98.8
138,99.1
139,99.4
140,99.7
141,99.9
142,100.2
143,100.5
144,100.8
145,101.0
146,101.3
147,101.5
148,101.8
149,102.1
150,102.3
151,102.5
152,102.8
153,103.0
154,103.3
155,103.5
156,103.7
157,103.9
158,104.2
159,104.4
160,104.6
161,104.8
162,105.0
163,105.2
164,105.5
165,105.6
166,105.8
167,106.0
168,106.2
169,106.4
170,106.6
171,106.8
172,107.0
173,107.2
174,107.3
175,107.5
176,107.7
177,107.9
178,108.0
179,108.2
180,108.4
181,108.5
182,108.7
183,108.9
184,109.1
185,109.2
186,109.4
187,109.5
188,109.7
189,109.9
190,110.0
191,110.1
192,110.2
193,110.4
194,110.6
195,110.7
196,110.8
197,110.9
198,111.1
199,111.2
200,111.3
201,111.4
202,111.5
203,111.7
204,111.7
205,111.9
206,112.0
207,112.1
208,112.2
209,112.3
210,112.5
211,112.6
212,112.7
213,112.7
214,112.9
215,113.0
216,113.1
217,113.2
218,113.3
219,113.4
220,113.5
221,113.6
222,113.7
223,113.7
224,113.8
225,113.9
226,114.0
227,114.1
228,114.2
229,114.3
230,114.4
231,114.4
232,114.5
233,114.6
234,114.7
235,114.8
236,114.8
237,114.9
238,115.0
239,115.1
240,115.2
241,115.2
242,115.3
243,115.4
244,115.5
245,115.6
246,115.6
247,115.7
248,115.7
249,115.8
250,115.9
251,115.9
252,116.0
253,116.1
254,116.2
255,116.2
256,116.3
257,116.3
258,116.4
259,116.5
260,116.5
261,116.6
262,116.7
263,116.7
264,116.7
265,116.8
266,116.9
267,117.0
268,117.0
269,117.0
270,117.1
271,117.2
272,117.2
273,117.3
274,117.3
275,117.4
276,117.4
277,117.5
278,117.6
279,117.6
280,117.6
281,117.7
282,117.8
283,117.8
284,117.8
285,117.9
286,118.0
287,118.0
288,118.0
289,118.1
290,118.2
291,118.2
292,118.2
293,118.3
294,118.3
295,118.4
296,118.5
297,118.4
298,118.5
299,118.6
300,118.6
301,118.7
302,118.7
303,118.7
304,118.8
305,118.8
306,118.9
307,118.9
308,118.9
309,119.0
310,119.0
311,119.0
312,119.1
313,119.1
314,119.2
315,119.2
316,119.2
317,119.3
318,119.3
319,119.4
320,119.4
321,119.4
322,119.5
323,119.5
324,119.6
325,119.6
326,119.6
327,119.7
328,119.7
329,119.8
330,119.8
331,119.8
332,119.9
333,119.9
334,119.9
335,120.0
336,120.0
337,120.1
338,120.1
339,120.1
340,120.2
341,120.2
342,120.2
343,120.3
344,120.4
345,120.9
346,122.0
347,123.4
348,125.0
349,126.7
350,128.4
351,130.4
352,131.7
353,133.1
354,134.6
355,136.1
356,137.4
357,138.7
358,139.9
359,141.1
360,142.3
361,143.4
362,144.5
363,145.6
364,146.6
365,147.6
366,148.6
367,149.4
368,150.5
369,151.4
370,152.3
371,153.1
372,154.0
373,154.8
374,155.6
375,156.4
376,157.1
377,157.9
378,158.7
379,159.4
380,160.1
381,160.8
382,161.6
383,162.2
384,162.8
385,163.4
386,164.0
387,164.7
388,165.3
389,165.8
390,166.3
391,166.9
392,167.5
393,168.0
394,168.5
395,169.0
396,169.5
397,170.0
398,170.4
399,170.8
400,171.3
401,171.8
402,172.2
403,172.6
404,173.0
405,173.4
406,173.8
407,174.2
408,174.6
409,175.0
410,175.3
411,175.7
412,176.1
413,176.4
414,176.7
415,177.0
416,177.3
417,177.7
418,177.9
419,178.2
420,178.5
421,178.8
422,179.1
423,179.3
424,179.6
425,179.9
426,180.1
427,180.3
428,180.6
429,180.9
430,181.1
431,181.3
432,181.5
433,181.8
434,182.0
435,182.2
436,182.4
437,182.6
438,182.8
439,183.0
440,183.2
441,183.3
442,183.5
443,183.7
444,183.9
445,184.1
446,184.2
447,184.4
448,184.6
449,184.8
450,184.9
451,185.0
452,185.2
453,185.4
454,185.5
455,185.6
456,185.8
457,185.9
458,186.1
459,186.3
460,186.3
461,186.5
462,186.6
463,186.8
464,186.9
465,187.0
466,187.1
467,187.2
468,187.3
469,187.5
470,187.5
471,187.7
472,187.8
473,187.9
474,188.0
475,188.1
476,188.2
477,188.3
478,188.4
479,188.5
480,188.6
481,188.7
482,188.8
483,188.8
484,189.0
485,189.1
486,189.2
487,189.3
488,189.3
489,189.4
490,189.5
491,189.6
492,189.7
493,189.8
494,189.8
495,190.0
496,190.0
497,190.1
498,190.2
499,190.3
500,190.3
501,190.4
502,190.4
503,190.5
504,190.6
505,190.7
506,190.7
507,190.8
508,190.9
509,190.9
510,191.0
511,191.0
512,191.1
513,191.1
514,191.2
515,191.3
516,191.3
517,191.3
518,191.4
519,191.5
520,191.6
521,191.6
522,191.6
523,191.7
524,191.8
525,191.8
526,191.8
527,191.9
528,192.0
529,192.0
530,192.0
531,192.1
532,192.2
533,192.2
534,192.3
535,192.3
536,192.4
537,192.4
538,192.5
539,192.5
540,192.5
541,192.6
542,192.7
543,192.7
544,192.7
545,192.8
546,192.8
547,192.9
548,192.9
549,193.0
550,193.0
551,193.1
552,193.1
553,193.1
554,193.2
555,193.2
556,193.3
557,193.3
558,193.3
559,193.4
560,193.4
561,193.5
562,193.5
563,193.5
564,193.6
565,193.6
566,193.7
567,193.7
568,193.7
569,193.8
570,193.8
571,193.9
572,193.9
573,193.9
574,194.0
575,194.1
576,194.1
577,194.1
578,194.1
579,194.2
580,194.3
581,194.3
582,194.3
583,194.4
584,194.4
585,194.4
586,194.4
587,194.5
588,194.6
589,194.6
590,194.6
591,194.6
592,194.7
593,194.7
594,194.8
595,194.8
596,194.8
597,194.8
598,194.9
599,194.9
600,194.9
601,195.0
602,195.0
603,195.0
604,195.0
605,195.1
606,195.1
607,195.2
608,195.2
609,195.2
610,195.2
611,195.3
612,195.4
613,195.3
614,195.4
615,195.4
616,195.4
617,195.5
618,195.5
619,195.5
620,195.6
621,195.6
622,195.7
623,195.6
624,195.7
625,195.7
626,195.8
627,195.8
628,195.8
629,195.9
630,195.9
631,196.0
632,196.0
633,196.0
634,196.0
635,196.1
636,196.1
637,196.1
638,196.1
639,196.2
640,196.2
641,196.2
642,196.2
643,196.3
644,196.3
645,196.4
646,196.3
647,196.4
648,196.4
649,196.5
650,196.5
651,196.5
652,196.5
653,196.6
654,196.6
655,196.7
656,196.6
657,196.7
658,196.7
659,196.8
660,196.7
661,196.8
662,196.8
663,196.9
664,196.9
665,196.9
666,197.0
667,197.0
668,197.1
669,197.0
670,197.1
671,197.1
672,197.1
673,197.2
674,197.2
675,197.2
676,197.2
677,197.3
678,197.3
679,197.3
680,197.3
681,197.4
682,197.4
683,197.4
684,197.4
685,197.5
686,197.5
687,197.6
688,197.5
689,197.6
690,197.6
691,197.6
692,197.7
693,197.7
694,197.7
695,197.7
696,197.7
697,197.7
698,197.7
699,197.8
700,197.8
701,197.9
702,197.9
703,197.9
704,197.9
705,198.0
706,198.0
707,198.0
708,198.0
709,198.1
710,198.1
711,198.1
712,198.1
713,198.1
714,198.2
715,198.2
716,198.2
717,198.2
718,198.2
719,198.3
720,198.3
721,198.3
722,198.3
723,198.4
724,198.4
725,198.4
726,198.4
727,198.4
728,198.5
729,198.5
730,198.5
731,198.5
732,198.6
733,198.6
734,198.7
735,198.6
736,198.7
737,198.7
738,198.7
739,198.8
740,198.8
741,198.8
742,198.8
743,198.9
744,198.9
745,198.9
746,198.9
747,199.0
748,199.0
749,199.0
750,199.0
751,199.1
752,199.1
753,199.1
754,199.1
755,199.2
756,199.2
757,199.3
758,199.2
759,199.3
760,199.3
761,199.3
762,199.4
763,199.4
764,199.4
765,199.4
766,199.5
767,199.4
768,199.4
769,199.5
770,199.5
771,199.5
772,199.5
773,199.6
774,199.6
775,199.6
776,199.6
777,199.6
778,199.6
779,199.7
780,199.7
781,199.7
782,199.7
783,199.7
784,199.7
785,199.8
786,199.8
787,199.8
788,199.8
789,199.8
790,199.9
791,199.9
792,199.9
793,199.9
794,199.9
795,199.9
796,199.9
797,200.0
798,200.0
